%  AIfA EU-HOU server: LAB  survey data 
% wanted position:  l, b, RA, DEC, interpolated  NH and beam width FWHM
%207.00 ; -15.00 ;  86.84 ;  -1.67 ;  0.182E+22;   3.99
%%LAB     777  datapoints: v_lsr [km/s], T_B [K], freq. [Mhz], wavel. [cm] 
    -399.92     -0.00   1422.301   21.07800
    -398.88     -0.01   1422.296   21.07807
    -397.85     -0.01   1422.291   21.07814
    -396.82      0.00   1422.286   21.07821
    -395.79      0.00   1422.281   21.07829
    -394.76     -0.01   1422.276   21.07836
    -393.73     -0.01   1422.271   21.07843
    -392.70     -0.00   1422.266   21.07850
    -391.67      0.00   1422.261   21.07858
    -390.64      0.00   1422.257   21.07865
    -389.61      0.00   1422.252   21.07872
    -388.58      0.01   1422.247   21.07879
    -387.55      0.01   1422.242   21.07887
    -386.52      0.01   1422.237   21.07894
    -385.49      0.00   1422.232   21.07901
    -384.46     -0.00   1422.227   21.07908
    -383.42      0.00   1422.222   21.07915
    -382.39      0.00   1422.218   21.07923
    -381.36      0.01   1422.213   21.07930
    -380.33      0.01   1422.208   21.07937
    -379.30      0.00   1422.203   21.07945
    -378.27     -0.01   1422.198   21.07952
    -377.24     -0.01   1422.193   21.07959
    -376.21     -0.00   1422.188   21.07966
    -375.18      0.00   1422.183   21.07973
    -374.15      0.00   1422.178   21.07981
    -373.12      0.01   1422.173   21.07988
    -372.09      0.01   1422.169   21.07995
    -371.06      0.00   1422.164   21.08002
    -370.03     -0.00   1422.159   21.08010
    -368.99     -0.00   1422.154   21.08017
    -367.96     -0.00   1422.149   21.08024
    -366.93      0.00   1422.144   21.08031
    -365.90     -0.00   1422.139   21.08039
    -364.87     -0.00   1422.135   21.08046
    -363.84      0.00   1422.130   21.08053
    -362.81      0.00   1422.125   21.08060
    -361.78      0.01   1422.120   21.08068
    -360.75      0.01   1422.115   21.08075
    -359.72      0.02   1422.110   21.08082
    -358.69      0.01   1422.105   21.08089
    -357.66      0.01   1422.100   21.08096
    -356.63      0.01   1422.095   21.08104
    -355.60      0.00   1422.091   21.08111
    -354.56     -0.00   1422.086   21.08118
    -353.53      0.00   1422.081   21.08125
    -352.50      0.00   1422.076   21.08132
    -351.47      0.00   1422.071   21.08140
    -350.44      0.00   1422.066   21.08147
    -349.41     -0.00   1422.061   21.08154
    -348.38     -0.00   1422.056   21.08162
    -347.35      0.00   1422.051   21.08169
    -346.32      0.01   1422.047   21.08176
    -345.29      0.02   1422.042   21.08183
    -344.26      0.01   1422.037   21.08191
    -343.23      0.01   1422.032   21.08198
    -342.20      0.01   1422.027   21.08205
    -341.17      0.01   1422.022   21.08212
    -340.13      0.01   1422.017   21.08220
    -339.10      0.00   1422.012   21.08227
    -338.07      0.00   1422.008   21.08234
    -337.04     -0.00   1422.003   21.08241
    -336.01     -0.00   1421.998   21.08248
    -334.98      0.00   1421.993   21.08256
    -333.95      0.00   1421.988   21.08263
    -332.92     -0.00   1421.983   21.08270
    -331.89     -0.00   1421.978   21.08277
    -330.86     -0.01   1421.973   21.08285
    -329.83     -0.01   1421.969   21.08292
    -328.80     -0.01   1421.964   21.08299
    -327.77     -0.00   1421.959   21.08307
    -326.74     -0.00   1421.954   21.08314
    -325.70     -0.00   1421.949   21.08321
    -324.67     -0.00   1421.944   21.08328
    -323.64      0.01   1421.939   21.08335
    -322.61      0.01   1421.934   21.08343
    -321.58      0.01   1421.929   21.08350
    -320.55      0.00   1421.924   21.08357
    -319.52      0.00   1421.920   21.08364
    -318.49      0.00   1421.915   21.08372
    -317.46      0.00   1421.910   21.08379
    -316.43     -0.00   1421.905   21.08386
    -315.40     -0.00   1421.900   21.08393
    -314.37     -0.00   1421.895   21.08401
    -313.34      0.00   1421.890   21.08408
    -312.31     -0.00   1421.885   21.08415
    -311.27     -0.00   1421.881   21.08422
    -310.24     -0.01   1421.876   21.08429
    -309.21     -0.01   1421.871   21.08437
    -308.18     -0.00   1421.866   21.08444
    -307.15     -0.00   1421.861   21.08451
    -306.12     -0.01   1421.856   21.08458
    -305.09     -0.01   1421.851   21.08466
    -304.06     -0.00   1421.846   21.08473
    -303.03     -0.00   1421.841   21.08480
    -302.00      0.01   1421.837   21.08488
    -300.97      0.01   1421.832   21.08495
    -299.94      0.00   1421.827   21.08502
    -298.91      0.01   1421.822   21.08509
    -297.88      0.01   1421.817   21.08516
    -296.84      0.00   1421.812   21.08524
    -295.81      0.00   1421.807   21.08531
    -294.78      0.01   1421.802   21.08538
    -293.75      0.01   1421.798   21.08545
    -292.72      0.00   1421.793   21.08553
    -291.69     -0.01   1421.788   21.08560
    -290.66     -0.01   1421.783   21.08567
    -289.63     -0.00   1421.778   21.08574
    -288.60      0.01   1421.773   21.08582
    -287.57      0.01   1421.768   21.08589
    -286.54     -0.00   1421.763   21.08596
    -285.51     -0.01   1421.759   21.08603
    -284.48     -0.01   1421.754   21.08611
    -283.45      0.00   1421.749   21.08618
    -282.41      0.00   1421.744   21.08625
    -281.38      0.00   1421.739   21.08632
    -280.35      0.00   1421.734   21.08639
    -279.32      0.00   1421.729   21.08647
    -278.29      0.00   1421.724   21.08654
    -277.26     -0.00   1421.719   21.08661
    -276.23     -0.01   1421.714   21.08669
    -275.20     -0.00   1421.710   21.08676
    -274.17      0.00   1421.705   21.08683
    -273.14      0.00   1421.700   21.08690
    -272.11      0.01   1421.695   21.08698
    -271.08      0.01   1421.690   21.08705
    -270.05      0.01   1421.685   21.08712
    -269.02      0.01   1421.680   21.08719
    -267.98      0.00   1421.676   21.08726
    -266.95     -0.00   1421.671   21.08734
    -265.92     -0.01   1421.666   21.08741
    -264.89     -0.01   1421.661   21.08748
    -263.86     -0.01   1421.656   21.08755
    -262.83     -0.01   1421.651   21.08763
    -261.80     -0.02   1421.646   21.08770
    -260.77     -0.01   1421.641   21.08777
    -259.74     -0.01   1421.636   21.08784
    -258.71     -0.01   1421.631   21.08792
    -257.68     -0.01   1421.627   21.08799
    -256.65     -0.00   1421.622   21.08806
    -255.62     -0.01   1421.617   21.08813
    -254.59     -0.01   1421.612   21.08821
    -253.55     -0.01   1421.607   21.08828
    -252.52     -0.01   1421.602   21.08835
    -251.49     -0.00   1421.597   21.08842
    -250.46      0.00   1421.592   21.08850
    -249.43      0.00   1421.588   21.08857
    -248.40      0.00   1421.583   21.08864
    -247.37     -0.00   1421.578   21.08871
    -246.34     -0.00   1421.573   21.08879
    -245.31      0.01   1421.568   21.08886
    -244.28      0.01   1421.563   21.08893
    -243.25      0.00   1421.558   21.08900
    -242.22     -0.00   1421.553   21.08907
    -241.19     -0.00   1421.549   21.08915
    -240.16     -0.00   1421.544   21.08922
    -239.12     -0.00   1421.539   21.08929
    -238.09     -0.00   1421.534   21.08937
    -237.06     -0.00   1421.529   21.08944
    -236.03     -0.00   1421.524   21.08951
    -235.00     -0.00   1421.519   21.08958
    -233.97     -0.00   1421.514   21.08965
    -232.94     -0.01   1421.509   21.08973
    -231.91     -0.01   1421.505   21.08980
    -230.88      0.00   1421.500   21.08987
    -229.85      0.00   1421.495   21.08994
    -228.82     -0.00   1421.490   21.09002
    -227.79     -0.00   1421.485   21.09009
    -226.76      0.00   1421.480   21.09016
    -225.73      0.00   1421.475   21.09023
    -224.69     -0.00   1421.470   21.09031
    -223.66     -0.00   1421.465   21.09038
    -222.63     -0.00   1421.461   21.09045
    -221.60     -0.00   1421.456   21.09052
    -220.57      0.00   1421.451   21.09060
    -219.54      0.01   1421.446   21.09067
    -218.51      0.01   1421.441   21.09074
    -217.48      0.01   1421.436   21.09081
    -216.45      0.01   1421.431   21.09089
    -215.42      0.00   1421.427   21.09096
    -214.39      0.00   1421.422   21.09103
    -213.36      0.00   1421.417   21.09110
    -212.33      0.00   1421.412   21.09118
    -211.30     -0.00   1421.407   21.09125
    -210.26      0.00   1421.402   21.09132
    -209.23      0.00   1421.397   21.09139
    -208.20      0.00   1421.392   21.09147
    -207.17      0.00   1421.387   21.09154
    -206.14      0.00   1421.382   21.09161
    -205.11      0.00   1421.378   21.09168
    -204.08      0.00   1421.373   21.09176
    -203.05      0.01   1421.368   21.09183
    -202.02      0.02   1421.363   21.09190
    -200.99      0.02   1421.358   21.09197
    -199.96      0.01   1421.353   21.09205
    -198.93      0.01   1421.348   21.09212
    -197.90      0.01   1421.343   21.09219
    -196.87      0.00   1421.339   21.09226
    -195.83      0.00   1421.334   21.09234
    -194.80      0.01   1421.329   21.09241
    -193.77      0.01   1421.324   21.09248
    -192.74      0.01   1421.319   21.09255
    -191.71      0.01   1421.314   21.09263
    -190.68      0.01   1421.309   21.09270
    -189.65      0.00   1421.304   21.09277
    -188.62     -0.01   1421.299   21.09284
    -187.59     -0.01   1421.295   21.09292
    -186.56     -0.00   1421.290   21.09299
    -185.53      0.00   1421.285   21.09306
    -184.50      0.00   1421.280   21.09313
    -183.47     -0.00   1421.275   21.09321
    -182.44     -0.00   1421.270   21.09328
    -181.41      0.00   1421.265   21.09335
    -180.37      0.00   1421.260   21.09342
    -179.34     -0.00   1421.255   21.09349
    -178.31     -0.00   1421.250   21.09357
    -177.28     -0.00   1421.246   21.09364
    -176.25     -0.00   1421.241   21.09371
    -175.22     -0.00   1421.236   21.09378
    -174.19     -0.00   1421.231   21.09386
    -173.16      0.00   1421.226   21.09393
    -172.13      0.01   1421.221   21.09400
    -171.10      0.01   1421.217   21.09407
    -170.07      0.01   1421.212   21.09415
    -169.04      0.01   1421.207   21.09422
    -168.01      0.01   1421.202   21.09429
    -166.98      0.00   1421.197   21.09436
    -165.94      0.01   1421.192   21.09444
    -164.91      0.02   1421.187   21.09451
    -163.88      0.01   1421.182   21.09458
    -162.85      0.00   1421.177   21.09465
    -161.82      0.00   1421.172   21.09473
    -160.79     -0.00   1421.168   21.09480
    -159.76     -0.00   1421.163   21.09487
    -158.73     -0.00   1421.158   21.09495
    -157.70     -0.00   1421.153   21.09502
    -156.67     -0.01   1421.148   21.09509
    -155.64     -0.01   1421.143   21.09516
    -154.61     -0.01   1421.138   21.09523
    -153.58      0.00   1421.133   21.09531
    -152.55     -0.00   1421.128   21.09538
    -151.51     -0.00   1421.124   21.09545
    -150.48     -0.00   1421.119   21.09552
    -149.45      0.00   1421.114   21.09560
    -148.42      0.01   1421.109   21.09567
    -147.39      0.01   1421.104   21.09574
    -146.36      0.02   1421.099   21.09582
    -145.33      0.02   1421.094   21.09589
    -144.30      0.01   1421.089   21.09596
    -143.27      0.01   1421.085   21.09603
    -142.24      0.02   1421.080   21.09610
    -141.21      0.02   1421.075   21.09618
    -140.18      0.02   1421.070   21.09625
    -139.15      0.02   1421.065   21.09632
    -138.12      0.01   1421.060   21.09639
    -137.08      0.01   1421.055   21.09647
    -136.05      0.01   1421.050   21.09654
    -135.02      0.01   1421.046   21.09661
    -133.99      0.00   1421.041   21.09669
    -132.96      0.00   1421.036   21.09676
    -131.93      0.00   1421.031   21.09683
    -130.90      0.00   1421.026   21.09690
    -129.87      0.01   1421.021   21.09697
    -128.84      0.01   1421.016   21.09705
    -127.81      0.02   1421.011   21.09712
    -126.78      0.01   1421.006   21.09719
    -125.75      0.01   1421.002   21.09727
    -124.72      0.01   1420.997   21.09734
    -123.69      0.01   1420.992   21.09741
    -122.65      0.02   1420.987   21.09748
    -121.62      0.02   1420.982   21.09756
    -120.59      0.02   1420.977   21.09763
    -119.56      0.01   1420.972   21.09770
    -118.53      0.01   1420.967   21.09777
    -117.50      0.02   1420.963   21.09785
    -116.47      0.01   1420.958   21.09792
    -115.44      0.01   1420.953   21.09799
    -114.41      0.01   1420.948   21.09806
    -113.38      0.02   1420.943   21.09814
    -112.35      0.03   1420.938   21.09821
    -111.32      0.02   1420.933   21.09828
    -110.29      0.02   1420.928   21.09835
    -109.26      0.02   1420.923   21.09843
    -108.22      0.02   1420.918   21.09850
    -107.19      0.02   1420.914   21.09857
    -106.16      0.02   1420.909   21.09864
    -105.13      0.03   1420.904   21.09871
    -104.10      0.02   1420.899   21.09879
    -103.07      0.02   1420.894   21.09886
    -102.04      0.02   1420.889   21.09893
    -101.01      0.02   1420.884   21.09901
     -99.98      0.01   1420.880   21.09908
     -98.95      0.01   1420.875   21.09915
     -97.92      0.01   1420.870   21.09922
     -96.89      0.02   1420.865   21.09930
     -95.86      0.03   1420.860   21.09937
     -94.83      0.02   1420.855   21.09944
     -93.79      0.03   1420.850   21.09951
     -92.76      0.03   1420.845   21.09958
     -91.73      0.03   1420.840   21.09966
     -90.70      0.02   1420.835   21.09973
     -89.67      0.03   1420.831   21.09980
     -88.64      0.03   1420.826   21.09988
     -87.61      0.03   1420.821   21.09995
     -86.58      0.02   1420.816   21.10002
     -85.55      0.02   1420.811   21.10009
     -84.52      0.02   1420.806   21.10016
     -83.49      0.02   1420.801   21.10024
     -82.46      0.02   1420.796   21.10031
     -81.43      0.02   1420.792   21.10038
     -80.40      0.02   1420.787   21.10045
     -79.36      0.02   1420.782   21.10053
     -78.33      0.03   1420.777   21.10060
     -77.30      0.03   1420.772   21.10067
     -76.27      0.03   1420.767   21.10075
     -75.24      0.03   1420.762   21.10082
     -74.21      0.02   1420.757   21.10089
     -73.18      0.01   1420.753   21.10096
     -72.15      0.01   1420.748   21.10103
     -71.12      0.01   1420.743   21.10111
     -70.09      0.00   1420.738   21.10118
     -69.06      0.00   1420.733   21.10125
     -68.03      0.01   1420.728   21.10133
     -67.00      0.02   1420.723   21.10140
     -65.97      0.02   1420.718   21.10147
     -64.93      0.03   1420.713   21.10154
     -63.90      0.03   1420.708   21.10162
     -62.87      0.02   1420.704   21.10169
     -61.84      0.02   1420.699   21.10176
     -60.81      0.03   1420.694   21.10183
     -59.78      0.03   1420.689   21.10191
     -58.75      0.03   1420.684   21.10198
     -57.72      0.03   1420.679   21.10205
     -56.69      0.03   1420.674   21.10213
     -55.66      0.03   1420.669   21.10220
     -54.63      0.04   1420.665   21.10227
     -53.60      0.04   1420.660   21.10234
     -52.57      0.04   1420.655   21.10242
     -51.54      0.04   1420.650   21.10249
     -50.50      0.05   1420.645   21.10256
     -49.47      0.06   1420.640   21.10263
     -48.44      0.06   1420.635   21.10270
     -47.41      0.06   1420.630   21.10278
     -46.38      0.08   1420.625   21.10285
     -45.35      0.09   1420.621   21.10292
     -44.32      0.09   1420.616   21.10299
     -43.29      0.11   1420.611   21.10307
     -42.26      0.12   1420.606   21.10314
     -41.23      0.14   1420.601   21.10321
     -40.20      0.16   1420.596   21.10328
     -39.17      0.18   1420.591   21.10336
     -38.14      0.20   1420.586   21.10343
     -37.11      0.23   1420.582   21.10350
     -36.07      0.25   1420.577   21.10357
     -35.04      0.30   1420.572   21.10365
     -34.01      0.35   1420.567   21.10372
     -32.98      0.40   1420.562   21.10379
     -31.95      0.45   1420.557   21.10386
     -30.92      0.51   1420.552   21.10394
     -29.89      0.58   1420.547   21.10401
     -28.86      0.64   1420.543   21.10408
     -27.83      0.71   1420.538   21.10415
     -26.80      0.79   1420.533   21.10423
     -25.77      0.85   1420.528   21.10430
     -24.74      0.91   1420.523   21.10437
     -23.71      0.97   1420.518   21.10445
     -22.68      1.04   1420.513   21.10452
     -21.64      1.10   1420.508   21.10459
     -20.61      1.17   1420.503   21.10466
     -19.58      1.25   1420.499   21.10474
     -18.55      1.36   1420.494   21.10481
     -17.52      1.49   1420.489   21.10488
     -16.49      1.64   1420.484   21.10496
     -15.46      1.82   1420.479   21.10502
     -14.43      2.05   1420.474   21.10510
     -13.40      2.34   1420.469   21.10517
     -12.37      2.69   1420.464   21.10524
     -11.34      3.13   1420.459   21.10532
     -10.31      3.68   1420.454   21.10539
      -9.28      4.35   1420.450   21.10546
      -8.25      5.19   1420.445   21.10553
      -7.21      6.23   1420.440   21.10561
      -6.18      7.51   1420.435   21.10568
      -5.15      9.05   1420.430   21.10575
      -4.12     10.85   1420.425   21.10582
      -3.09     13.00   1420.421   21.10589
      -2.06     15.69   1420.416   21.10597
      -1.03     19.27   1420.411   21.10604
       0.00     24.10   1420.406   21.10611
       1.03     30.19   1420.401   21.10619
       2.06     37.02   1420.396   21.10626
       3.09     43.92   1420.391   21.10633
       4.12     50.48   1420.386   21.10641
       5.15     56.12   1420.381   21.10648
       6.18     60.05   1420.376   21.10655
       7.21     61.89   1420.372   21.10662
       8.25     61.42   1420.367   21.10670
       9.28     58.57   1420.362   21.10677
      10.31     54.33   1420.357   21.10684
      11.34     49.78   1420.352   21.10691
      12.37     44.53   1420.347   21.10699
      13.40     37.74   1420.342   21.10706
      14.43     30.03   1420.337   21.10713
      15.46     23.15   1420.333   21.10720
      16.49     18.15   1420.328   21.10728
      17.52     14.76   1420.323   21.10735
      18.55     12.38   1420.318   21.10742
      19.58     10.62   1420.313   21.10749
      20.61      9.27   1420.308   21.10756
      21.64      8.22   1420.303   21.10764
      22.68      7.39   1420.298   21.10771
      23.71      6.71   1420.293   21.10778
      24.74      6.18   1420.289   21.10785
      25.77      5.77   1420.284   21.10793
      26.80      5.42   1420.279   21.10800
      27.83      5.11   1420.274   21.10807
      28.86      4.79   1420.269   21.10815
      29.89      4.45   1420.264   21.10822
      30.92      4.13   1420.259   21.10829
      31.95      3.83   1420.254   21.10836
      32.98      3.54   1420.250   21.10844
      34.01      3.25   1420.245   21.10851
      35.04      2.96   1420.240   21.10858
      36.07      2.68   1420.235   21.10865
      37.11      2.40   1420.230   21.10873
      38.14      2.14   1420.225   21.10880
      39.17      1.90   1420.220   21.10887
      40.20      1.69   1420.215   21.10895
      41.23      1.50   1420.210   21.10902
      42.26      1.33   1420.206   21.10909
      43.29      1.18   1420.201   21.10916
      44.32      1.06   1420.196   21.10923
      45.35      0.95   1420.191   21.10931
      46.38      0.85   1420.186   21.10938
      47.41      0.76   1420.181   21.10945
      48.44      0.70   1420.176   21.10953
      49.47      0.63   1420.171   21.10960
      50.50      0.54   1420.167   21.10967
      51.54      0.45   1420.162   21.10974
      52.57      0.37   1420.157   21.10982
      53.60      0.33   1420.152   21.10989
      54.63      0.29   1420.147   21.10996
      55.66      0.25   1420.142   21.11003
      56.69      0.23   1420.137   21.11011
      57.72      0.20   1420.132   21.11018
      58.75      0.18   1420.127   21.11025
      59.78      0.17   1420.122   21.11032
      60.81      0.15   1420.118   21.11040
      61.84      0.13   1420.113   21.11047
      62.87      0.12   1420.108   21.11054
      63.90      0.12   1420.103   21.11061
      64.93      0.11   1420.098   21.11069
      65.97      0.09   1420.093   21.11076
      67.00      0.08   1420.088   21.11083
      68.03      0.08   1420.083   21.11090
      69.06      0.07   1420.078   21.11098
      70.09      0.06   1420.074   21.11105
      71.12      0.06   1420.069   21.11112
      72.15      0.05   1420.064   21.11120
      73.18      0.05   1420.059   21.11127
      74.21      0.04   1420.054   21.11134
      75.24      0.04   1420.049   21.11141
      76.27      0.04   1420.044   21.11148
      77.30      0.04   1420.040   21.11156
      78.33      0.03   1420.035   21.11163
      79.36      0.03   1420.030   21.11170
      80.40      0.03   1420.025   21.11177
      81.43      0.04   1420.020   21.11185
      82.46      0.03   1420.015   21.11192
      83.49      0.02   1420.010   21.11199
      84.52      0.01   1420.005   21.11207
      85.55      0.01   1420.000   21.11214
      86.58      0.01   1419.996   21.11221
      87.61      0.01   1419.991   21.11229
      88.64      0.01   1419.986   21.11236
      89.67      0.01   1419.981   21.11243
      90.70      0.01   1419.976   21.11250
      91.73      0.01   1419.971   21.11258
      92.76      0.00   1419.966   21.11265
      93.79     -0.00   1419.961   21.11272
      94.83     -0.01   1419.956   21.11279
      95.86     -0.00   1419.952   21.11286
      96.89      0.00   1419.947   21.11294
      97.92     -0.00   1419.942   21.11301
      98.95     -0.01   1419.937   21.11308
      99.98     -0.00   1419.932   21.11315
     101.01      0.00   1419.927   21.11323
     102.04      0.00   1419.922   21.11330
     103.07     -0.01   1419.917   21.11337
     104.10     -0.01   1419.912   21.11345
     105.13     -0.00   1419.908   21.11352
     106.16     -0.00   1419.903   21.11359
     107.19      0.00   1419.898   21.11366
     108.22      0.00   1419.893   21.11374
     109.26     -0.00   1419.888   21.11381
     110.29      0.00   1419.883   21.11388
     111.32      0.00   1419.878   21.11395
     112.35      0.00   1419.874   21.11403
     113.38      0.00   1419.869   21.11410
     114.41      0.00   1419.864   21.11417
     115.44      0.01   1419.859   21.11424
     116.47      0.01   1419.854   21.11432
     117.50      0.01   1419.849   21.11439
     118.53      0.01   1419.844   21.11446
     119.56      0.01   1419.839   21.11454
     120.59      0.01   1419.834   21.11461
     121.62      0.00   1419.830   21.11468
     122.65      0.00   1419.825   21.11475
     123.69      0.00   1419.820   21.11483
     124.72      0.01   1419.815   21.11490
     125.75      0.01   1419.810   21.11497
     126.78      0.00   1419.805   21.11504
     127.81      0.00   1419.800   21.11511
     128.84      0.01   1419.795   21.11519
     129.87      0.01   1419.790   21.11526
     130.90      0.00   1419.786   21.11533
     131.93      0.00   1419.781   21.11541
     132.96      0.00   1419.776   21.11548
     133.99      0.00   1419.771   21.11555
     135.02      0.00   1419.766   21.11563
     136.05      0.01   1419.761   21.11570
     137.08      0.00   1419.756   21.11577
     138.12      0.01   1419.751   21.11584
     139.15      0.02   1419.746   21.11592
     140.18      0.02   1419.742   21.11599
     141.21      0.02   1419.737   21.11606
     142.24      0.02   1419.732   21.11613
     143.27      0.02   1419.727   21.11621
     144.30      0.01   1419.722   21.11628
     145.33      0.01   1419.717   21.11635
     146.36      0.01   1419.712   21.11642
     147.39      0.02   1419.708   21.11650
     148.42      0.02   1419.703   21.11657
     149.45      0.01   1419.698   21.11664
     150.48      0.01   1419.693   21.11671
     151.51      0.01   1419.688   21.11679
     152.55      0.01   1419.683   21.11686
     153.58      0.01   1419.678   21.11693
     154.61      0.01   1419.673   21.11700
     155.64     -0.00   1419.668   21.11708
     156.67      0.00   1419.663   21.11715
     157.70      0.01   1419.659   21.11722
     158.73      0.01   1419.654   21.11730
     159.76      0.01   1419.649   21.11737
     160.79      0.00   1419.644   21.11744
     161.82      0.00   1419.639   21.11751
     162.85      0.00   1419.634   21.11759
     163.88      0.01   1419.629   21.11766
     164.91      0.02   1419.624   21.11773
     165.94      0.02   1419.620   21.11780
     166.98      0.01   1419.615   21.11788
     168.01      0.01   1419.610   21.11795
     169.04      0.00   1419.605   21.11802
     170.07      0.01   1419.600   21.11809
     171.10      0.01   1419.595   21.11817
     172.13      0.00   1419.590   21.11824
     173.16     -0.00   1419.585   21.11831
     174.19      0.00   1419.580   21.11839
     175.22      0.00   1419.576   21.11846
     176.25      0.00   1419.571   21.11853
     177.28     -0.00   1419.566   21.11860
     178.31     -0.00   1419.561   21.11868
     179.34     -0.00   1419.556   21.11875
     180.37      0.00   1419.551   21.11882
     181.41     -0.00   1419.546   21.11889
     182.44     -0.01   1419.541   21.11897
     183.47     -0.00   1419.536   21.11904
     184.50      0.00   1419.532   21.11911
     185.53      0.01   1419.527   21.11918
     186.56      0.01   1419.522   21.11926
     187.59      0.01   1419.517   21.11933
     188.62      0.01   1419.512   21.11940
     189.65      0.01   1419.507   21.11947
     190.68      0.01   1419.502   21.11955
     191.71      0.01   1419.497   21.11962
     192.74      0.01   1419.493   21.11969
     193.77      0.01   1419.488   21.11976
     194.80      0.01   1419.483   21.11984
     195.83      0.01   1419.478   21.11991
     196.87      0.01   1419.473   21.11998
     197.90      0.01   1419.468   21.12006
     198.93      0.01   1419.463   21.12013
     199.96      0.02   1419.458   21.12020
     200.99      0.01   1419.453   21.12027
     202.02      0.00   1419.449   21.12035
     203.05      0.01   1419.444   21.12042
     204.08      0.01   1419.439   21.12049
     205.11      0.02   1419.434   21.12056
     206.14      0.01   1419.429   21.12064
     207.17      0.00   1419.424   21.12071
     208.20      0.01   1419.419   21.12078
     209.23      0.01   1419.414   21.12086
     210.26      0.00   1419.410   21.12093
     211.30      0.00   1419.405   21.12100
     212.33      0.01   1419.400   21.12107
     213.36      0.01   1419.395   21.12115
     214.39      0.01   1419.390   21.12122
     215.42      0.01   1419.385   21.12129
     216.45      0.00   1419.380   21.12136
     217.48      0.00   1419.375   21.12144
     218.51      0.00   1419.370   21.12151
     219.54      0.00   1419.366   21.12158
     220.57      0.00   1419.361   21.12165
     221.60     -0.01   1419.356   21.12173
     222.63     -0.01   1419.351   21.12180
     223.66     -0.00   1419.346   21.12187
     224.69     -0.00   1419.341   21.12194
     225.73     -0.01   1419.336   21.12202
     226.76     -0.00   1419.331   21.12209
     227.79     -0.00   1419.327   21.12216
     228.82     -0.00   1419.322   21.12224
     229.85     -0.00   1419.317   21.12231
     230.88      0.00   1419.312   21.12238
     231.91      0.01   1419.307   21.12245
     232.94      0.01   1419.302   21.12253
     233.97      0.00   1419.297   21.12260
     235.00      0.00   1419.292   21.12267
     236.03      0.00   1419.287   21.12274
     237.06      0.01   1419.283   21.12282
     238.09      0.00   1419.278   21.12289
     239.12     -0.00   1419.273   21.12296
     240.16      0.00   1419.268   21.12304
     241.19      0.00   1419.263   21.12311
     242.22      0.01   1419.258   21.12318
     243.25      0.02   1419.253   21.12325
     244.28      0.01   1419.248   21.12333
     245.31      0.01   1419.244   21.12340
     246.34      0.01   1419.239   21.12347
     247.37      0.01   1419.234   21.12354
     248.40      0.01   1419.229   21.12362
     249.43      0.01   1419.224   21.12369
     250.46      0.01   1419.219   21.12376
     251.49      0.01   1419.214   21.12383
     252.52      0.02   1419.209   21.12391
     253.55      0.01   1419.204   21.12398
     254.59      0.00   1419.200   21.12405
     255.62      0.01   1419.195   21.12412
     256.65      0.01   1419.190   21.12420
     257.68      0.01   1419.185   21.12427
     258.71     -0.00   1419.180   21.12434
     259.74     -0.01   1419.175   21.12442
     260.77      0.00   1419.170   21.12449
     261.80      0.00   1419.165   21.12456
     262.83     -0.01   1419.160   21.12464
     263.86     -0.02   1419.156   21.12471
     264.89     -0.01   1419.151   21.12478
     265.92      0.00   1419.146   21.12485
     266.95      0.00   1419.141   21.12492
     267.98     -0.01   1419.136   21.12500
     269.02     -0.01   1419.131   21.12507
     270.05     -0.01   1419.126   21.12514
     271.08     -0.01   1419.121   21.12522
     272.11     -0.00   1419.117   21.12529
     273.14      0.00   1419.112   21.12536
     274.17     -0.00   1419.107   21.12543
     275.20     -0.00   1419.102   21.12551
     276.23     -0.01   1419.097   21.12558
     277.26     -0.01   1419.092   21.12565
     278.29     -0.01   1419.087   21.12572
     279.32      0.00   1419.082   21.12580
     280.35      0.00   1419.078   21.12587
     281.38      0.00   1419.073   21.12594
     282.41      0.01   1419.068   21.12602
     283.45      0.01   1419.063   21.12609
     284.48      0.01   1419.058   21.12616
     285.51      0.01   1419.053   21.12623
     286.54      0.01   1419.048   21.12630
     287.57      0.01   1419.043   21.12638
     288.60      0.00   1419.038   21.12645
     289.63      0.01   1419.034   21.12652
     290.66      0.01   1419.029   21.12660
     291.69      0.01   1419.024   21.12667
     292.72      0.01   1419.019   21.12674
     293.75     -0.00   1419.014   21.12681
     294.78     -0.00   1419.009   21.12689
     295.81     -0.01   1419.004   21.12696
     296.84     -0.01   1418.999   21.12703
     297.88     -0.01   1418.994   21.12711
     298.91     -0.00   1418.990   21.12718
     299.94     -0.01   1418.985   21.12725
     300.97     -0.01   1418.980   21.12733
     302.00      0.00   1418.975   21.12740
     303.03      0.00   1418.970   21.12747
     304.06     -0.01   1418.965   21.12754
     305.09     -0.01   1418.960   21.12761
     306.12     -0.00   1418.955   21.12769
     307.15      0.00   1418.950   21.12776
     308.18      0.00   1418.946   21.12783
     309.21      0.01   1418.941   21.12790
     310.24      0.01   1418.936   21.12798
     311.27      0.00   1418.931   21.12805
     312.31     -0.00   1418.926   21.12812
     313.34     -0.00   1418.921   21.12820
     314.37     -0.00   1418.916   21.12827
     315.40      0.00   1418.911   21.12834
     316.43      0.01   1418.906   21.12842
     317.46      0.01   1418.902   21.12849
     318.49      0.02   1418.897   21.12856
     319.52      0.01   1418.892   21.12863
     320.55      0.00   1418.887   21.12871
     321.58      0.01   1418.882   21.12878
     322.61      0.01   1418.877   21.12885
     323.64      0.01   1418.872   21.12893
     324.67      0.01   1418.867   21.12900
     325.70      0.01   1418.863   21.12907
     326.74      0.00   1418.858   21.12914
     327.77     -0.00   1418.853   21.12922
     328.80      0.00   1418.848   21.12929
     329.83      0.01   1418.843   21.12936
     330.86      0.01   1418.838   21.12943
     331.89      0.01   1418.833   21.12951
     332.92      0.01   1418.828   21.12958
     333.95      0.00   1418.823   21.12965
     334.98      0.00   1418.819   21.12972
     336.01     -0.00   1418.814   21.12980
     337.04     -0.00   1418.809   21.12987
     338.07      0.00   1418.804   21.12994
     339.10      0.01   1418.799   21.13001
     340.13      0.00   1418.794   21.13009
     341.17      0.00   1418.789   21.13016
     342.20     -0.00   1418.784   21.13023
     343.23     -0.01   1418.780   21.13031
     344.26     -0.01   1418.775   21.13038
     345.29     -0.00   1418.770   21.13045
     346.32     -0.00   1418.765   21.13052
     347.35      0.00   1418.760   21.13060
     348.38      0.00   1418.755   21.13067
     349.41     -0.00   1418.750   21.13074
     350.44      0.00   1418.745   21.13082
     351.47      0.00   1418.740   21.13089
     352.50      0.01   1418.736   21.13096
     353.53      0.01   1418.731   21.13103
     354.56      0.01   1418.726   21.13111
     355.60     -0.00   1418.721   21.13118
     356.63     -0.01   1418.716   21.13125
     357.66     -0.00   1418.711   21.13132
     358.69     -0.00   1418.706   21.13140
     359.72     -0.01   1418.701   21.13147
     360.75     -0.01   1418.697   21.13154
     361.78     -0.01   1418.692   21.13161
     362.81     -0.00   1418.687   21.13169
     363.84      0.01   1418.682   21.13176
     364.87      0.01   1418.677   21.13183
     365.90      0.00   1418.672   21.13191
     366.93     -0.01   1418.667   21.13198
     367.96     -0.01   1418.662   21.13205
     368.99     -0.00   1418.657   21.13212
     370.03     -0.00   1418.653   21.13220
     371.06     -0.01   1418.648   21.13227
     372.09     -0.00   1418.643   21.13234
     373.12      0.00   1418.638   21.13242
     374.15     -0.00   1418.633   21.13249
     375.18     -0.01   1418.628   21.13256
     376.21     -0.01   1418.623   21.13263
     377.24     -0.01   1418.618   21.13271
     378.27     -0.01   1418.614   21.13278
     379.30     -0.01   1418.609   21.13285
     380.33     -0.01   1418.604   21.13293
     381.36     -0.01   1418.599   21.13300
     382.39     -0.01   1418.594   21.13307
     383.42     -0.00   1418.589   21.13314
     384.46     -0.00   1418.584   21.13321
     385.49     -0.00   1418.579   21.13329
     386.52     -0.00   1418.574   21.13336
     387.55     -0.00   1418.570   21.13343
     388.58      0.00   1418.565   21.13351
     389.61     -0.00   1418.560   21.13358
     390.64     -0.01   1418.555   21.13365
     391.67     -0.01   1418.550   21.13372
     392.70      0.00   1418.545   21.13380
     393.73      0.01   1418.540   21.13387
     394.76      0.01   1418.535   21.13394
     395.79     -0.00   1418.531   21.13402
     396.82     -0.01   1418.526   21.13409
     397.85     -0.01   1418.521   21.13416
     398.88     -0.01   1418.516   21.13423
     399.92     -0.00   1418.511   21.13431
   
